Time,Temperature,Humidity,Pressure
0,23.5,45.2,1013.2
1,24.1,44.8,1013.0
2,24.7,44.5,1012.8
3,25.2,44.1,1012.6
4,25.8,43.8,1012.3
5,26.3,43.5,1012.1
6,26.9,43.1,1011.9
7,27.4,42.8,1011.7
8,28.0,42.4,1011.5
9,28.5,42.1,1011.2
10,29.1,41.7,1011.0
11,29.6,41.4,1010.8
12,30.2,41.0,1010.6
13,30.7,40.7,1010.3
14,31.3,40.3,1010.1
15,31.8,40.0,1009.9
16,32.4,39.6,1009.7
17,32.9,39.3,1009.4
18,33.5,38.9,1009.2
19,34.0,38.6,1009.0
20,34.6,38.2,1008.8
